,Time(s),SetTemp(K),Temp(K),HeatPower,P,I,D
0,0.0,130.197,100.0,0.0,67.3,48.5,100.0
1,2.3189450000000003,100.0,129.593,0.0,67.3,48.5,100.0
2,4.46943,100.0,129.02100000000002,0.0,67.3,48.5,100.0
3,6.589817999999999,100.0,128.483,0.0,67.3,48.5,100.0
4,8.669831,100.0,127.961,0.0,67.3,48.5,100.0
5,10.740604,100.0,127.432,0.0,67.3,48.5,100.0
6,12.830176,100.0,126.92399999999999,0.0,67.3,48.5,100.0
7,14.901382,100.0,126.461,0.0,67.3,48.5,100.0
8,16.981958,100.0,125.98100000000001,0.0,67.3,48.5,100.0
9,19.052212,100.0,125.515,0.0,67.3,48.5,100.0
10,21.122166,100.0,125.05799999999999,0.0,67.3,48.5,100.0
11,23.183255,100.0,124.639,0.0,67.3,48.5,100.0
12,25.263178,100.0,124.196,0.0,67.3,48.5,100.0
13,27.384057000000002,100.0,123.758,0.0,67.3,48.5,100.0
14,29.484454,100.0,123.35,0.0,67.3,48.5,100.0
15,31.555155,100.0,122.943,0.0,67.3,48.5,100.0
16,33.624961,100.0,122.551,0.0,67.3,48.5,100.0
17,35.695085999999996,100.0,122.19,0.0,67.3,48.5,100.0
18,37.775533,100.0,121.807,0.0,67.3,48.5,100.0
19,39.855647,100.0,121.435,0.0,67.3,48.5,100.0
20,41.926276,100.0,121.089,0.0,67.3,48.5,100.0
21,43.996998,100.0,120.74600000000001,0.0,67.3,48.5,100.0
22,46.067406,100.0,120.41,0.0,67.3,48.5,100.0
23,48.148589,100.0,120.083,0.0,67.3,48.5,100.0
24,50.228314000000005,100.0,119.75399999999999,0.0,67.3,48.5,100.0
25,52.368369,100.0,119.429,0.0,67.3,48.5,100.0
26,54.47932900000001,100.0,119.12700000000001,0.0,67.3,48.5,100.0
27,56.589521,100.0,118.81700000000001,0.0,67.3,48.5,100.0
28,58.663565000000006,100.0,118.524,0.0,67.3,48.5,100.0
29,60.75048100000001,100.0,118.23100000000001,0.0,67.3,48.5,100.0
30,62.820721999999996,100.0,117.946,0.0,67.3,48.5,100.0
31,64.920705,100.0,117.665,0.0,67.3,48.5,100.0
32,67.00100400000001,100.0,117.40299999999999,0.0,67.3,48.5,100.0
33,69.081337,100.0,117.13799999999999,0.0,67.3,48.5,100.0
34,71.151475,100.0,116.868,0.0,67.3,48.5,100.0
35,73.211929,100.0,116.62100000000001,0.0,67.3,48.5,100.0
36,75.312733,100.0,116.331,0.0,67.3,48.5,100.0
37,77.422452,100.0,116.095,0.0,67.3,48.5,100.0
38,79.503592,100.0,115.86,0.0,67.3,48.5,100.0
39,81.584198,100.0,115.60700000000001,0.0,67.3,48.5,100.0
40,83.664335,100.0,115.369,0.0,67.3,48.5,100.0
41,85.735078,100.0,115.146,0.0,67.3,48.5,100.0
42,87.824691,100.0,114.89399999999999,0.0,67.3,48.5,100.0
43,89.905823,100.0,114.68799999999999,0.0,67.3,48.5,100.0
44,91.9759,100.0,114.465,0.0,67.3,48.5,100.0
45,94.066507,100.0,114.234,0.0,67.3,48.5,100.0
46,96.127095,100.0,114.02600000000001,0.0,67.3,48.5,100.0
47,98.206923,100.0,113.836,0.0,67.3,48.5,100.0
48,100.307118,100.0,113.60700000000001,0.0,67.3,48.5,100.0
49,102.418267,100.0,113.40899999999999,0.0,67.3,48.5,100.0
50,104.50586700000001,100.0,113.199,0.0,67.3,48.5,100.0
51,106.60837099999999,100.0,112.99,0.0,67.3,48.5,100.0
52,108.688544,100.0,112.79700000000001,0.0,67.3,48.5,100.0
53,110.759277,100.0,112.587,0.0,67.3,48.5,100.0
54,112.81958999999999,100.0,112.39399999999999,0.0,67.3,48.5,100.0
55,114.92066399999999,100.0,112.212,0.0,67.3,48.5,100.0
56,117.00041499999999,100.0,112.036,0.0,67.3,48.5,100.0
57,119.071399,100.0,111.84,0.0,67.3,48.5,100.0
58,121.151981,100.0,111.639,0.0,67.3,48.5,100.0
59,123.232001,100.0,111.464,0.0,67.3,48.5,100.0
60,125.36173600000001,100.0,111.27,0.0,67.3,48.5,100.0
61,127.46208200000001,100.0,111.1,0.0,67.3,48.5,100.0
62,129.553429,100.0,110.92200000000001,0.0,67.3,48.5,100.0
63,131.613395,100.0,110.759,0.0,67.3,48.5,100.0
64,133.703809,100.0,110.57700000000001,0.0,67.3,48.5,100.0
65,135.784099,100.0,110.41,0.0,67.3,48.5,100.0
66,137.865032,100.0,110.22,0.0,67.3,48.5,100.0
67,139.935633,100.0,110.03399999999999,0.0,67.3,48.5,100.0
68,142.015704,100.0,109.84700000000001,0.0,67.3,48.5,100.0
69,144.08745,100.0,109.654,0.0,67.3,48.5,100.0
70,146.156711,100.0,109.47,0.0,67.3,48.5,100.0
71,148.256135,100.0,109.291,0.0,67.3,48.5,100.0
72,150.387235,100.0,109.145,0.0,67.3,48.5,100.0
73,152.46749,100.0,108.973,0.0,67.3,48.5,100.0
74,154.559218,100.0,108.78,0.0,67.3,48.5,100.0
75,156.668722,100.0,108.62200000000001,0.0,67.3,48.5,100.0
76,158.738095,100.0,108.441,0.0,67.3,48.5,100.0
77,160.82958200000002,100.0,108.275,0.0,67.3,48.5,100.0
78,162.899566,100.0,108.071,0.0,67.3,48.5,100.0
79,164.970212,100.0,107.839,0.0,67.3,48.5,100.0
80,167.040699,100.0,107.663,0.0,67.3,48.5,100.0
81,169.110683,100.0,107.45700000000001,0.0,67.3,48.5,100.0
82,171.191668,100.0,107.301,0.0,67.3,48.5,100.0
83,173.272001,100.0,107.12700000000001,0.0,67.3,48.5,100.0
84,175.40178799999998,100.0,106.977,0.0,67.3,48.5,100.0
85,177.472871,100.0,106.825,0.0,67.3,48.5,100.0
86,179.54267,100.0,106.685,0.0,67.3,48.5,100.0
87,181.623742,100.0,106.54,0.0,67.3,48.5,100.0
88,183.69388700000002,100.0,106.419,0.0,67.3,48.5,100.0
89,185.764177,100.0,106.27,0.0,67.3,48.5,100.0
90,187.824491,100.0,106.147,0.0,67.3,48.5,100.0
91,189.894631,100.0,105.93700000000001,0.0,67.3,48.5,100.0
92,191.974908,100.0,105.79700000000001,0.0,67.3,48.5,100.0
93,194.04599299999998,100.0,105.655,0.0,67.3,48.5,100.0
94,196.106281,100.0,105.491,0.0,67.3,48.5,100.0
95,198.186713,100.0,105.375,0.0,67.3,48.5,100.0
96,200.26655,100.0,105.21799999999999,0.0,67.3,48.5,100.0
97,202.387072,100.0,105.094,0.0,67.3,48.5,100.0
98,204.488054,100.0,104.977,0.0,67.3,48.5,100.0
99,206.590018,104.839,100.0,0.0,67.3,48.5,100.0
100,208.688277,100.0,104.68,0.0,67.3,48.5,100.0
101,210.758666,100.0,104.536,0.0,67.3,48.5,100.0
102,212.829533,100.0,104.39200000000001,0.0,67.3,48.5,100.0
103,214.929938,100.0,104.26700000000001,0.0,67.3,48.5,100.0
104,217.010525,100.0,104.12,0.0,67.3,48.5,100.0
105,219.090327,100.0,103.991,0.0,67.3,48.5,100.0
106,221.171133,100.0,103.875,0.0,67.3,48.5,100.0
107,223.27153399999997,100.0,103.75,0.0,67.3,48.5,100.0
108,225.409009,100.0,103.64399999999999,0.0,67.3,48.5,100.0
109,227.48237200000003,100.0,103.492,0.0,67.3,48.5,100.0
110,229.56196,100.0,103.321,0.0,67.3,48.5,100.0
111,231.62318900000002,100.0,103.223,0.0,67.3,48.5,100.0
112,233.70317000000003,100.0,103.083,0.0,67.3,48.5,100.0
113,235.77413900000002,100.0,102.986,0.0,67.3,48.5,100.0
114,237.844383,100.0,102.87,0.0,67.3,48.5,100.0
115,239.92410299999997,100.0,102.66,0.0,67.3,48.5,100.0
116,242.00520699999998,100.0,102.546,0.0,67.3,48.5,100.0
117,244.075827,100.0,102.425,0.0,67.3,48.5,100.0
118,246.14522999999997,100.0,102.29700000000001,0.0,67.3,48.5,100.0
119,248.226629,100.0,102.206,0.0,67.3,48.5,100.0
120,250.336779,100.0,102.06700000000001,0.0,67.3,48.5,100.0
121,252.476621,100.0,101.96,0.0,67.3,48.5,100.0
122,254.57761299999999,100.0,101.81700000000001,0.0,67.3,48.5,100.0
123,256.707301,100.0,101.709,0.0,67.3,48.5,100.0
124,258.778183,100.0,101.546,0.0,67.3,48.5,100.0
125,260.84878100000003,100.0,101.421,0.0,67.3,48.5,100.0
126,262.919243,100.0,101.28200000000001,0.0,67.3,48.5,100.0
127,264.99942400000003,100.0,101.155,0.0,67.3,48.5,100.0
128,267.079034,100.0,100.99600000000001,0.0,67.3,48.5,100.0
129,269.17179500000003,100.0,100.87,0.0,67.3,48.5,100.0
130,271.24035200000003,100.0,100.75399999999999,0.0,67.3,48.5,100.0
131,273.38082799999995,100.0,100.633,0.0,67.3,48.5,100.0
132,275.48104900000004,100.0,100.499,0.0,67.3,48.5,100.0
133,277.552139,100.0,100.42399999999999,0.0,67.3,48.5,100.0
134,279.632857,100.0,100.24700000000001,1.1,67.3,48.5,100.0
135,281.712028,100.0,100.115,3.0,67.3,48.5,100.0
136,283.772111,100.0,99.9887,4.4,67.3,48.5,100.0
137,285.842744,100.0,99.8553,5.7,67.3,48.5,100.0
138,287.913497,100.0,99.7468,7.0,67.3,48.5,100.0
139,289.994821,100.0,99.6507,8.6,67.3,48.5,100.0
141,294.145119,100.0,99.4238,12.0,67.3,48.5,100.0
142,296.2256,100.0,99.3165,13.6,67.3,48.5,100.0
143,298.336333,100.0,99.2611,14.6,67.3,48.5,100.0
144,300.445935,100.0,99.2023,16.3,67.3,48.5,100.0
145,302.52680699999996,100.0,99.1806,16.7,67.3,48.5,100.0
146,304.61724100000004,100.0,99.1829,17.4,67.3,48.5,100.0
147,306.73779,100.0,99.1617,18.2,67.3,48.5,100.0
148,308.818352,100.0,99.1603,19.0,67.3,48.5,100.0
149,310.908545,100.0,99.1784,19.0,67.3,48.5,100.0
150,312.978944,100.0,99.2268,19.0,67.3,48.5,100.0
151,315.069079,100.0,99.2773,18.7,67.3,48.5,100.0
152,317.139419,100.0,99.2637,20.2,67.3,48.5,100.0
153,319.219909,100.0,99.3044,19.8,67.3,48.5,100.0
154,321.336837,100.0,99.4257,18.7,67.3,48.5,100.0
155,323.451014,100.0,99.3562,20.7,67.3,48.5,100.0
156,325.530862,100.0,99.4104,20.3,67.3,48.5,100.0
157,327.60175899999996,100.0,99.5105,19.6,67.3,48.5,100.0
158,329.682095,100.0,99.4264,22.0,67.3,48.5,100.0
159,331.75253399999997,100.0,99.5051,20.7,67.3,48.5,100.0
160,333.832017,100.0,99.6236,19.3,67.3,48.5,100.0
161,335.913091,100.0,99.624,20.2,67.3,48.5,100.0
162,337.98370800000004,100.0,99.6832,20.7,67.3,48.5,100.0
163,340.05375899999996,100.0,99.6753,20.4,67.3,48.5,100.0
164,342.133803,100.0,99.7095,20.5,67.3,48.5,100.0
165,344.21801899999997,100.0,99.6746,21.9,67.3,48.5,100.0
166,346.31552999999997,100.0,99.7351,20.8,67.3,48.5,100.0
167,348.445846,100.0,99.7998,20.4,67.3,48.5,100.0
168,350.516063,100.0,99.7964,20.8,67.3,48.5,100.0
169,352.586412,100.0,99.7966,21.6,67.3,48.5,100.0
170,354.675817,100.0,99.8129,21.4,67.3,48.5,100.0
171,356.787323,100.0,99.8003,21.9,67.3,48.5,100.0
172,358.857426,100.0,99.7896,22.1,67.3,48.5,100.0
173,360.938102,100.0,99.8729,21.3,67.3,48.5,100.0
174,362.998676,100.0,99.8846,21.0,67.3,48.5,100.0
175,365.078012,100.0,99.9195,20.7,67.3,48.5,100.0
176,367.14917,100.0,99.9046,22.0,67.3,48.5,100.0
177,369.21915,100.0,99.8753,21.8,67.3,48.5,100.0
178,371.331556,100.0,99.9029,21.5,67.3,48.5,100.0
179,373.450182,100.0,99.921,22.0,67.3,48.5,100.0
180,375.530596,100.0,99.9168,21.9,67.3,48.5,100.0
181,377.61156,100.0,99.9174,21.7,67.3,48.5,100.0
182,379.691779,100.0,99.9615,21.1,67.3,48.5,100.0
183,381.7719,100.0,100.016,20.5,67.3,48.5,100.0
184,383.83301600000004,100.0,99.9828,21.6,67.3,48.5,100.0
185,385.90299,100.0,99.9439,22.5,67.3,48.5,100.0
186,387.973312,100.0,99.9128,22.5,67.3,48.5,100.0
187,390.03340499999996,100.0,99.915,22.7,67.3,48.5,100.0
188,392.11411400000003,100.0,99.8726,23.9,67.3,48.5,100.0
189,394.184499,100.0,99.8913,23.4,67.3,48.5,100.0
190,396.244749,100.0,99.9047,22.9,67.3,48.5,100.0
191,398.38464300000004,100.0,99.9122,23.0,67.3,48.5,100.0
192,400.47561,100.0,99.9275,22.6,67.3,48.5,100.0
193,402.546246,100.0,99.9211,22.9,67.3,48.5,100.0
194,404.64957400000003,100.0,99.9331,22.9,67.3,48.5,100.0
195,406.777151,100.0,99.9514,22.5,67.3,48.5,100.0
196,408.847458,100.0,99.9534,22.7,67.3,48.5,100.0
197,410.927749,100.0,99.9136,23.4,67.3,48.5,100.0
198,413.008087,100.0,99.9458,23.0,67.3,48.5,100.0
199,415.088608,100.0,99.9712,22.6,67.3,48.5,100.0
200,417.15838199999996,100.0,99.9738,22.4,67.3,48.5,100.0
201,419.23925299999996,100.0,99.9439,23.6,67.3,48.5,100.0
202,421.38878700000004,100.0,99.9484,23.6,67.3,48.5,100.0
203,423.479932,100.0,99.9115,23.4,67.3,48.5,100.0
204,425.550484,100.0,99.9481,23.9,67.3,48.5,100.0
205,427.63045999999997,100.0,99.9333,23.3,67.3,48.5,100.0
206,429.72156500000006,100.0,99.9493,23.7,67.3,48.5,100.0
207,431.79146799999995,100.0,99.9171,24.6,67.3,48.5,100.0
208,433.86202699999996,100.0,99.9437,23.1,67.3,48.5,100.0
209,435.932361,100.0,99.9764,23.3,67.3,48.5,100.0
210,438.01202,100.0,99.9607,23.9,67.3,48.5,100.0
211,440.09290899999996,100.0,99.917,24.8,67.3,48.5,100.0
212,442.16301799999997,100.0,99.9168,23.8,67.3,48.5,100.0
213,444.244029,100.0,99.9488,25.0,67.3,48.5,100.0
214,446.384567,100.0,99.962,23.7,67.3,48.5,100.0
215,448.45508600000005,105.0,99.9872,100.0,67.3,48.5,100.0
216,450.535255,105.0,100.178,100.0,67.3,48.5,100.0
217,452.61570300000005,105.0,101.932,62.7,67.3,48.5,100.0
218,454.71598099999994,105.0,104.551,20.3,67.3,48.5,100.0
219,456.82679800000005,105.0,106.264,1.1,67.3,48.5,100.0
220,458.91687199999996,105.0,106.913,0.0,67.3,48.5,100.0
221,460.98689299999995,105.0,106.941,0.0,67.3,48.5,100.0
222,463.05772699999994,105.0,106.68700000000001,2.9,67.3,48.5,100.0
223,465.14793,105.0,106.289,9.9,67.3,48.5,100.0
224,467.22778600000004,105.0,105.88600000000001,16.5,67.3,48.5,100.0
225,469.34821100000005,105.0,105.45,22.3,67.3,48.5,100.0
226,471.48917300000005,105.0,105.156,26.0,67.3,48.5,100.0
227,473.55960999999996,105.0,104.925,29.0,67.3,48.5,100.0
228,475.64014800000007,105.0,104.807,30.0,67.3,48.5,100.0
229,477.719613,105.0,104.74799999999999,30.2,67.3,48.5,100.0
230,479.790733,105.0,104.708,31.0,67.3,48.5,100.0
231,481.85150300000004,105.0,104.74,29.8,67.3,48.5,100.0
232,483.93173099999996,105.0,104.78,29.1,67.3,48.5,100.0
233,486.011658,105.0,104.82799999999999,28.7,67.3,48.5,100.0
234,488.081622,105.0,104.811,28.8,67.3,48.5,100.0
235,490.152729,105.0,104.819,29.1,67.3,48.5,100.0
236,492.233542,105.0,104.787,29.7,67.3,48.5,100.0
237,494.364208,105.0,104.792,29.4,67.3,48.5,100.0
238,496.49434299999996,105.0,104.836,29.0,67.3,48.5,100.0
239,498.56479299999995,105.0,104.82,29.4,67.3,48.5,100.0
240,500.644504,105.0,104.82799999999999,29.7,67.3,48.5,100.0
241,502.71557300000006,105.0,104.824,29.7,67.3,48.5,100.0
242,504.81581600000004,105.0,104.819,30.1,67.3,48.5,100.0
243,506.93637,105.0,104.866,29.0,67.3,48.5,100.0
244,509.01633200000003,105.0,104.874,29.4,67.3,48.5,100.0
245,511.086034,105.0,104.883,29.3,67.3,48.5,100.0
246,513.156941,105.0,104.853,30.3,67.3,48.5,100.0
247,515.237662,105.0,104.854,30.2,67.3,48.5,100.0
248,517.370105,105.0,104.85799999999999,30.2,67.3,48.5,100.0
249,519.468677,105.0,104.852,30.5,67.3,48.5,100.0
250,521.549239,105.0,104.88600000000001,30.2,67.3,48.5,100.0
251,523.609233,105.0,104.943,29.1,67.3,48.5,100.0
252,525.6697839999999,105.0,104.934,29.5,67.3,48.5,100.0
253,527.750036,105.0,104.941,29.6,67.3,48.5,100.0
254,529.820633,105.0,104.911,30.3,67.3,48.5,100.0
255,531.891004,105.0,104.935,30.0,67.3,48.5,100.0
256,533.95133,105.0,104.92299999999999,30.3,67.3,48.5,100.0
257,536.031298,105.0,104.954,29.9,67.3,48.5,100.0
258,538.091537,105.0,104.955,30.2,67.3,48.5,100.0
259,540.162333,110.0,104.993,100.0,67.3,48.5,100.0
260,542.2330099999999,110.0,105.76,91.1,67.3,48.5,100.0
261,544.3433,110.0,108.272,46.7,67.3,48.5,100.0
262,546.453929,110.0,110.62899999999999,13.4,67.3,48.5,100.0
263,548.533875,110.0,111.787,1.2,67.3,48.5,100.0
264,550.614435,110.0,112.075,1.1,67.3,48.5,100.0
265,552.69645,110.0,111.839,7.1,67.3,48.5,100.0
266,554.786034,110.0,111.39299999999999,14.7,67.3,48.5,100.0
267,556.904217,110.0,110.883,23.1,67.3,48.5,100.0
268,558.985575,110.0,110.37299999999999,30.4,67.3,48.5,100.0
269,561.05647,110.0,110.027,35.0,67.3,48.5,100.0
270,563.15648,110.0,109.79899999999999,37.6,67.3,48.5,100.0
271,565.228012,110.0,109.723,37.9,67.3,48.5,100.0
272,567.353682,110.0,109.78399999999999,35.9,67.3,48.5,100.0
273,569.468543,110.0,109.854,34.8,67.3,48.5,100.0
274,571.568259,110.0,109.906,33.9,67.3,48.5,100.0
275,573.643378,110.0,109.97,33.0,67.3,48.5,100.0
276,575.729384,110.0,109.954,33.6,67.3,48.5,100.0
277,577.82285,110.0,109.93299999999999,34.0,67.3,48.5,100.0
278,579.899228,110.0,109.90100000000001,34.3,67.3,48.5,100.0
279,581.975082,110.0,109.87799999999999,34.9,67.3,48.5,100.0
280,584.050959,110.0,109.891,34.3,67.3,48.5,100.0
281,586.131329,110.0,109.915,34.2,67.3,48.5,100.0
282,588.201954,110.0,109.925,34.1,67.3,48.5,100.0
283,590.291764,110.0,109.913,34.4,67.3,48.5,100.0
284,592.4019519999999,110.0,109.89,34.9,67.3,48.5,100.0
285,594.493334,110.0,109.911,34.6,67.3,48.5,100.0
286,596.6029480000001,110.0,109.92399999999999,34.2,67.3,48.5,100.0
287,598.663728,110.0,109.911,34.8,67.3,48.5,100.0
288,600.754282,110.0,109.926,34.6,67.3,48.5,100.0
289,602.8447309999999,110.0,109.928,34.4,67.3,48.5,100.0
290,604.915139,110.0,109.959,34.1,67.3,48.5,100.0
291,606.994773,110.0,109.969,34.1,67.3,48.5,100.0
293,611.166075,110.0,109.943,34.8,67.3,48.5,100.0
294,613.2667389999999,110.0,109.94,34.5,67.3,48.5,100.0
295,615.4071610000001,110.0,109.946,34.6,67.3,48.5,100.0
296,617.487019,110.0,109.973,34.3,67.3,48.5,100.0
297,619.55757,110.0,109.963,34.4,67.3,48.5,100.0
298,621.638132,110.0,109.969,34.6,67.3,48.5,100.0
299,623.718852,110.0,109.98,34.2,67.3,48.5,100.0
300,625.7902320000001,110.0,109.98899999999999,34.2,67.3,48.5,100.0
301,627.858884,110.0,109.99,34.3,67.3,48.5,100.0
302,629.939624,110.0,109.98899999999999,34.3,67.3,48.5,100.0
303,632.009964,110.0,109.98899999999999,34.4,67.3,48.5,100.0
304,634.070648,110.0,109.986,34.5,67.3,48.5,100.0
305,636.151108,110.0,109.96600000000001,34.5,67.3,48.5,100.0
306,638.230875,110.0,109.985,34.5,67.3,48.5,100.0
307,640.351318,110.0,109.991,34.3,67.3,48.5,100.0
308,642.462429,110.0,110.008,34.4,67.3,48.5,100.0
309,644.552163,110.0,110.00200000000001,34.1,67.3,48.5,100.0
310,646.6862160000001,110.0,110.027,33.9,67.3,48.5,100.0
311,648.762794,110.0,110.012,34.3,67.3,48.5,100.0
312,650.843349,110.0,110.01100000000001,34.3,67.3,48.5,100.0
313,652.9342320000001,110.0,109.99700000000001,34.4,67.3,48.5,100.0
314,655.0043730000001,110.0,110.01299999999999,34.2,67.3,48.5,100.0
315,657.077239,110.0,109.993,34.6,67.3,48.5,100.0
316,659.155691,110.0,109.999,34.4,67.3,48.5,100.0
317,661.2361559999999,110.0,110.021,33.7,67.3,48.5,100.0
318,663.356315,110.0,110.012,34.1,67.3,48.5,100.0
319,665.466457,110.0,109.995,34.6,67.3,48.5,100.0
320,667.5380299999999,110.0,109.98100000000001,34.6,67.3,48.5,100.0
321,669.696548,115.0,110.00399999999999,100.0,67.3,48.5,100.0
322,671.767434,115.0,110.125,100.0,67.3,48.5,100.0
323,673.84842,115.0,111.36200000000001,85.9,67.3,48.5,100.0
324,675.9289980000001,115.0,113.90899999999999,41.7,67.3,48.5,100.0
325,678.008233,115.0,116.05799999999999,12.8,67.3,48.5,100.0
326,680.069194,115.0,117.064,2.9,67.3,48.5,100.0
327,682.1701929999999,115.0,117.15899999999999,5.4,67.3,48.5,100.0
328,684.260116,115.0,116.807,12.9,67.3,48.5,100.0
329,686.400886,115.0,116.24600000000001,22.3,67.3,48.5,100.0
330,688.462324,115.0,115.693,31.1,67.3,48.5,100.0
331,690.541769,115.0,115.211,37.6,67.3,48.5,100.0
332,692.61112,115.0,114.859,42.1,67.3,48.5,100.0
333,694.714115,115.0,114.706,43.1,67.3,48.5,100.0
334,696.832866,115.0,114.734,41.8,67.3,48.5,100.0
335,698.917645,115.0,114.829,39.7,67.3,48.5,100.0
336,700.9837269999999,115.0,114.932,38.0,67.3,48.5,100.0
337,703.0535629999999,115.0,115.006,36.9,67.3,48.5,100.0
338,705.134362,115.0,115.02799999999999,36.7,67.3,48.5,100.0
339,707.204562,115.0,115.02600000000001,36.8,67.3,48.5,100.0
340,709.295388,115.0,114.98700000000001,37.6,67.3,48.5,100.0
341,711.405625,115.0,114.96799999999999,37.6,67.3,48.5,100.0
342,713.476161,115.0,114.94,38.2,67.3,48.5,100.0
343,715.556547,115.0,114.93700000000001,38.2,67.3,48.5,100.0
344,717.6370730000001,115.0,114.92399999999999,38.3,67.3,48.5,100.0
345,719.7065150000001,115.0,114.926,38.5,67.3,48.5,100.0
346,721.777557,115.0,114.926,38.3,67.3,48.5,100.0
347,723.858015,115.0,114.949,37.9,67.3,48.5,100.0
348,725.938451,115.0,114.95700000000001,37.8,67.3,48.5,100.0
349,728.0087679999999,115.0,114.98100000000001,37.6,67.3,48.5,100.0
350,730.078962,115.0,114.98700000000001,37.6,67.3,48.5,100.0
351,732.159894,115.0,114.98200000000001,37.8,67.3,48.5,100.0
352,734.240709,115.0,114.959,38.1,67.3,48.5,100.0
353,736.3701110000001,115.0,114.959,38.2,67.3,48.5,100.0
354,738.469969,115.0,114.956,38.2,67.3,48.5,100.0
355,740.551254,115.0,114.959,38.1,67.3,48.5,100.0
356,742.631248,115.0,114.955,38.2,67.3,48.5,100.0
357,744.711661,115.0,114.978,37.8,67.3,48.5,100.0
358,746.832009,115.0,114.994,37.5,67.3,48.5,100.0
359,748.912754,115.0,115.006,37.6,67.3,48.5,100.0
360,750.9826879999999,115.0,114.984,38.0,67.3,48.5,100.0
361,753.053623,115.0,114.97,38.2,67.3,48.5,100.0
362,755.143745,115.0,114.999,37.6,67.3,48.5,100.0
363,757.21464,115.0,115.008,37.6,67.3,48.5,100.0
364,759.324461,115.0,115.00399999999999,37.6,67.3,48.5,100.0
365,761.435258,115.0,115.00299999999999,37.5,67.3,48.5,100.0
366,763.505547,115.0,115.016,37.4,67.3,48.5,100.0
367,765.575829,120.0,115.01700000000001,100.0,67.3,48.5,100.0
368,767.6559480000001,120.0,115.171,100.0,67.3,48.5,100.0
369,769.736556,120.0,116.535,86.4,67.3,48.5,100.0
370,771.816909,120.0,119.027,43.9,67.3,48.5,100.0
371,773.876859,120.0,121.109,16.0,67.3,48.5,100.0
372,775.957721,120.0,122.025,7.2,67.3,48.5,100.0
373,778.0378469999999,120.0,122.133,9.4,67.3,48.5,100.0
